Time(ms), Pos X, Pos Y, Pos Z
1425398534713242159, 1.9440348296199872, 1.1490029154221861, -0.22609305199146046
1425398534753514945, 1.9091065381210992, 1.1455785637756866, -0.2357610602188298
1425398534794945162, 1.8767234911701611, 1.13690971704988, -0.24251834664646932
1425398534835361290, 1.8521849336979146, 1.1237046074911647, -0.2548592776407631
1425398534876120712, 1.8223631160678602, 1.1076277326541792, -0.2570446400381472
1425398534916397277, 1.7944529755366896, 1.087767182294978, -0.25810833616447626
1425398534957827333, 1.7701277929865875, 1.0674068284422153, -0.25934077716852855
1425398534967905964, 1.7691074715589696, 1.066552565631835, -0.2588442442103718
1425398534998108052, 1.7422910163927607, 1.045682900245787, -0.2507681500676322
1425398535038399290, 1.7113082661569874, 1.0269321163637346, -0.2492837152835251
1425398535078759364, 1.681159916169878, 1.0108571436989056, -0.24045019150409763
1425398535119615200, 1.6475390931240428, 0.996122691125835, -0.23567499726065255
1425398535159918639, 1.617905589176061, 0.9855219317190513, -0.23285057750169158
1425398535190151191, 1.5874388005646778, 0.9746288038225419, -0.2276159095725354
1425398535234582822, 1.5624237064963296, 0.966165443571176, -0.23142863566536231
1425398535244743391, 1.5567389856296636, 0.9642426821222907, -0.22959008420348404
1425398535275317441, 1.5257510923214834, 0.9551717677108216, -0.2290855655663222
1425398535315541018, 1.4943178479866606, 0.9460884194142418, -0.23319608472771702
1425398535356447616, 1.4626036992758844, 0.9386397667566104, -0.24000491672811497
1425398535396776899, 1.4295728419939115, 0.9290622884046362, -0.24664710554015534
1425398535437238009, 1.397560074246491, 0.9247305316413341, -0.2552843572679153
1425398535467446478, 1.3653549883982623, 0.9199726714741527, -0.25848603114729163
1425398535517793235, 1.3324334013197134, 0.9153407619406215, -0.26551315666691866
1425398535558055088, 1.2985747416806397, 0.9092331226478687, -0.2729267669453286
1425398535600350284, 1.263911203561877, 0.901913834262756, -0.2696467730465042
1425398535640650058, 1.2283053177991994, 0.892364467885238, -0.26952724009561757
1425398535671481309, 1.1905102494871462, 0.8816111971523999, -0.2650000698188495
1425398535721854065, 1.1516740109035242, 0.8690613634174422, -0.25773995213460743
1425398535752038272, 1.1117177520085115, 0.8556949710963118, -0.25072919067442756
1425398535792396594, 1.0708950371896933, 0.8414667722542655, -0.24091265683733587
1425398535832664569, 1.0308828862547332, 0.82677815509688, -0.23630826760203139
1425398535862829440, 1.0114143914151827, 0.8196130575458831, -0.23240603705338958
1425398535882979993, 0.9922039939137902, 0.8129741753138546, -0.22755666501398708
1425398535903122517, 0.9739514086331791, 0.8059087646234795, -0.2230473295720803
1425398535923333925, 0.9564385356616322, 0.7986771803542134, -0.22232476044530536
1425398535943459003, 0.9397536372926136, 0.7914777426735145, -0.21973353280233376
1425398535963579802, 0.9235051659960483, 0.7844736646424604, -0.217114618951895
1425398536003836107, 0.8939199433489871, 0.7698564849187004, -0.21159344363976618
1425398536044089180, 0.8683339368279845, 0.7544378707810995, -0.21233719917347038
1425398536074283190, 0.8465336042054572, 0.7380989111309855, -0.20956301262397303
1425398536114581644, 0.8282177764731793, 0.7202189911834376, -0.2134308172643783
1425398536154852333, 0.8132651201268558, 0.7006927688046767, -0.2165227562551736
1425398536195189120, 0.8010260236451185, 0.6797202788431371, -0.21957435794704583
1425398536225354262, 0.7960371570442595, 0.6682029329165533, -0.2257732840653115
1425398536235525092, 0.7914497109334895, 0.6569415861604451, -0.22906245728207375
1425398536265732651, 0.7874163790567176, 0.6453135252083855, -0.23159746600759723
1425398536275744973, 0.7841728948878912, 0.6331534821952312, -0.23002873944526503
1425398536307098443, 0.7812286997870608, 0.6213491168528376, -0.23037233281386982
1425398536317158972, 0.7790306324663585, 0.6094951922167662, -0.23142740168584408
1425398536337284006, 0.7773433031698384, 0.5974380723149355, -0.2335510888962402
1425398536357411441, 0.77585643043111, 0.5856289209257861, -0.23287721534025851
1425398536377538526, 0.7743804781579908, 0.5738107407667228, -0.2281793983535806
1425398536397894705, 0.7725004590056146, 0.5623213824440729, -0.22751509844568163
1425398536418106530, 0.7706705668627769, 0.5509375313522411, -0.22812409654487842
1425398536438239510, 0.7683856799919299, 0.5399930080581208, -0.230240522502699
1425398536458408824, 0.7653874957681778, 0.5297954671534062, -0.22950701403403895
1425398536478542236, 0.7617662926920139, 0.5195743650860267, -0.22529252853786852
1425398536498683794, 0.7577543452491058, 0.5098062789514839, -0.22524878877270993
1425398536518866653, 0.75337112372418, 0.5002071031853215, -0.22560099690338353
1425398536549061189, 0.7435294839219615, 0.4830755647443079, -0.225948661333651
1425398536589315038, 0.7337946876861814, 0.46688197226007633, -0.22000547964496187
1425398536629574376, 0.7237878881118167, 0.4510011158138927, -0.22114592444617698
1425398536659711100, 0.7188692180302988, 0.4427904237946667, -0.21971540970123205
1425398536679856091, 0.7102628628031608, 0.4311875370057354, -0.21843564038884122
1425398536720132784, 0.6977830780860339, 0.4160715161627344, -0.21339371203851754
1425398536740370915, 0.6909356855227624, 0.4086133977810944, -0.212935416735202
1425398536781452693, 0.6805282796467096, 0.3979228156398391, -0.21323117699111416
1425398536811647250, 0.665570298168789, 0.3846891991393939, -0.2142395936361463
1425398536853250300, 0.650299917724482, 0.37147121296261254, -0.2170168771771981
1425398536903601539, 0.6339546714523994, 0.35841409135575675, -0.2185217023707342
1425398536934115128, 0.6183965889931347, 0.3465247298056302, -0.226520044139353
1425398536944195955, 0.6164276336556993, 0.3450201298604656, -0.22568291613099178
1425398536984534940, 0.5978982726147806, 0.3305928832478793, -0.22837124426373834
1425398537014730975, 0.5779307482044994, 0.3155866490707109, -0.2359068273493079
1425398537055059086, 0.5567137246984336, 0.29960020335752846, -0.24065535945585648
1425398537096475222, 0.5349007029494336, 0.28233129748273944, -0.24532783531657731
1425398537136666560, 0.5114935772013931, 0.2641246895519742, -0.2552115218729698
1425398537177008850, 0.4871606756747544, 0.24444426386979634, -0.25798567444820864
1425398537217288037, 0.46152642184493176, 0.22235075724420228, -0.2660074538059146
1425398537258026218, 0.4350413850509295, 0.19900142484894534, -0.277069130856583
1425398537298245963, 0.40868574142281167, 0.174768328656846, -0.2814403381364562
1425398537338513496, 0.3831220771576732, 0.14938773721981558, -0.2931008381352883
1425398537378864001, 0.35981892162114004, 0.12416117688882577, -0.29672991645970204
1425398537409069502, 0.33888884542827713, 0.09868036894781596, -0.3060428849384663
1425398537449372964, 0.32067998377017604, 0.07296645617011044, -0.31766058381320317
1425398537489751955, 0.30483200995835347, 0.046884067116397476, -0.32632783872889626
1425398537540064008, 0.29162739079382705, 0.021835698103506607, -0.34565268874052557
1425398537583097833, 0.2802558238286528, -0.0032740487897673365, -0.3607848999428752
1425398537623364597, 0.2714195014689089, -0.02770277247970654, -0.3816305045361349
1425398537653588993, 0.26484800304106026, -0.05078253426708623, -0.4037148590387033
1425398537693923859, 0.26050607227253564, -0.07328840979618012, -0.4270848231975731
1425398537734231368, 0.2581305844206605, -0.09478644997288632, -0.45922605092637725
1425398537784664782, 0.2559159764767397, -0.11643259609014334, -0.48724430587069534
1425398537824951805, 0.2544457908802359, -0.13693196043505917, -0.5211083256511496
1425398537855399424, 0.2535309048547113, -0.1564248864158886, -0.5517650118205883
1425398537906265950, 0.2531316298172481, -0.17490729152987816, -0.5792079740602303
1425398537936454726, 0.2533670340695917, -0.19234428312317342, -0.6105362617849839
1425398537977164917, 0.25359853249997377, -0.20904460046001794, -0.6316509332482112
1425398538017439744, 0.25430935449038095, -0.2244320870033849, -0.6527148505896967
1425398538057693907, 0.2552457694870106, -0.23790808961019105, -0.6726257515094286
1425398538087949393, 0.25668302960812406, -0.2495552648474142, -0.6836067521898082
1425398538129166964, 0.25836458238615456, -0.25925743317592276, -0.6988065392500125
1425398538169473176, 0.26127589155803654, -0.2658879563734693, -0.7039273201669194
1425398538209774101, 0.2634179290704528, -0.2681123667833383, -0.7138401388127209
1425398538219817423, 0.2639971452331953, -0.26871404342561367, -0.7127808694145956
1425398538260144729, 0.26646249123494736, -0.2689420682658412, -0.7202268379761847
1425398538290689495, 0.2675216537626902, -0.26812650841738206, -0.7212053021351792
1425398538341035143, 0.26744593925572824, -0.26976497166317803, -0.7227199976213697
1425398538381340659, 0.2674411742007209, -0.27053200339389916, -0.7200031100004627
1425398538411927159, 0.26873722139088463, -0.27038958551585, -0.7165096933143067
1425398538462351245, 0.2717880133811724, -0.26940222950565884, -0.7095162204561761
1425398538502629448, 0.27613041498154955, -0.26741341892616943, -0.6967635594380512
1425398538532848486, 0.28109789610536007, -0.26360634156780205, -0.6875504157053538
1425398538573099197, 0.2866970386477321, -0.2592663273150757, -0.6710766757617822
1425398538623524605, 0.2931064007884945, -0.2544696449002475, -0.6553940704071224
1425398538653717303, 0.29931493793549013, -0.24991612531802154, -0.6349237887005665
1425398538704091020, 0.3053182101015989, -0.24623681891562232, -0.6098548832213647
1425398538744398115, 0.3112937848398789, -0.2433795918523649, -0.5870276185034996
1425398538784727188, 0.3171961487300382, -0.2412297537649326, -0.5557204165578514
1425398538825011338, 0.32296126214027754, -0.23974658082342848, -0.5262749316741729
1425398538855617512, 0.32844687102982495, -0.23864784181142196, -0.49100722703394795
1425398538895865221, 0.3334660642741504, -0.23737990277149112, -0.45264593406022013
1425398538936133358, 0.3381426218551945, -0.2365258915704047, -0.4170775527642898
1425398538976487733, 0.342733413488013, -0.23576571035913552, -0.3732839960844755
1425398539016928849, 0.3469544276054787, -0.23428965298120819, -0.3328280059416484
1425398539057172394, 0.3510788350203997, -0.23236773991013027, -0.295351736584353
1425398539097435297, 0.3552114476883028, -0.22958405763326128, -0.2524225739512467
1425398539137682752, 0.35908370275281365, -0.22539650398151267, -0.21793137330542067
1425398539178145472, 0.36363658073739547, -0.2209156292090173, -0.178282533219834
1425398539208389160, 0.36945963470767884, -0.21810264580471173, -0.14724344807055467
1425398539258904939, 0.37577704491473995, -0.21324194524691342, -0.11830306696512127
1425398539299905449, 0.3836262679078265, -0.20733946413385818, -0.08477408921393281
1425398539340347410, 0.39320791507782327, -0.2002145098394541, -0.05897277319374972
1425398539370641908, 0.40412808287964297, -0.1899200840564763, -0.02896538594602527
1425398539410956349, 0.4163348676493369, -0.17981814698911003, -0.004293966808997629
1425398539461304766, 0.42947293312513035, -0.16712196792653522, 0.01741124160820129
1425398539491439538, 0.44291798099431845, -0.1525029476044577, 0.03932506821992776
1425398539531779268, 0.45443761039869246, -0.13892029447132015, 0.04824264280348012
1425398539541846852, 0.4566915826468778, -0.13626240162373393, 0.052540333766343705
1425398539582117924, 0.4706083099963404, -0.11843559103846468, 0.06684399141455777
1425398539612332061, 0.48558572492026597, -0.09975787942300052, 0.07586116815113164
1425398539662852171, 0.505817350639117, -0.07446759695068139, 0.08456959793677532
1425398539693068851, 0.523143543239047, -0.052820084362343867, 0.0893693764614445
1425398539713191368, 0.5274840151868001, -0.047767362957165105, 0.09027893985667923
1425398539723302714, 0.5319374026389625, -0.04258191771461339, 0.09233821815201382
1425398539753519583, 0.5452666419558109, -0.026141496304826983, 0.09251756237694853
1425398539793796258, 0.5633438511011241, -0.003691027981505446, 0.09479646395736285
1425398539834069406, 0.5814457098316503, 0.017627628900237058, 0.08995048731822042
1425398539884450507, 0.599415791854369, 0.03832471900665646, 0.08968402646807294
1425398539914661929, 0.6160924117327712, 0.05830334698530315, 0.084613923132558
1425398539955050321, 0.6313870126183028, 0.07650541829956548, 0.08173125358083544
1425398539999160775, 0.6443394900943271, 0.09361439775625247, 0.07893960833733371
1425398540039418480, 0.6546789975492873, 0.1085122657493931, 0.07019145095470192
1425398540069640098, 0.6614415379484369, 0.12253392804861041, 0.06772543242137119
1425398540109986571, 0.6633176435561501, 0.131783600369608, 0.05813175570242124
1425398540120308443, 0.6638015021620229, 0.13417013776692888, 0.05927225982526596
1425398540160626504, 0.6617729339541862, 0.1439254636680316, 0.049771000803283894
1425398540190870792, 0.6555130592702545, 0.1527064016374653, 0.043692482258793186
1425398540243051885, 0.6455614813628767, 0.161102747456896, 0.032034762481413015
1425398540283343868, 0.6326556034198367, 0.1692123421877021, 0.025649741650557223
1425398540313571780, 0.6174644884099975, 0.1768455790698018, 0.016948108536157358
1425398540354062469, 0.5999592801378574, 0.18438857763311622, 0.01072744257296332
1425398540404432837, 0.5806921207110953, 0.1916683524810361, 0.006676911890580728
1425398540434721683, 0.56159183288545, 0.19789980690778508, -0.0034365799167983546
1425398540444835006, 0.5597440457400621, 0.1985025017104307, -0.002917748636387607
1425398540475140073, 0.538126831569076, 0.20465009621564678, -0.006523300404626786
1425398540515408062, 0.5158370353146311, 0.2098984475617478, -0.015196352007476932
1425398540556308921, 0.4938305336768978, 0.21437514960280857, -0.022400713134110628
1425398540597093033, 0.47200721022966474, 0.2186877034029422, -0.025290961914565813
1425398540637350049, 0.4502540877769122, 0.22249916956881677, -0.03549961314865557
1425398540667606482, 0.450254087776912, 0.2224991695688172, -0.03549961314865535
1425398540677671270, 0.4285870510953864, 0.22602553160588323, -0.03888660529002719
1425398540717928711, 0.4075439887955191, 0.22927585877758783, -0.047613877536931026
1425398540748678872, 0.387249002680524, 0.23242514217797505, -0.05814119467899537
1425398540768870757, 0.38724128281571357, 0.23242633710203164, -0.05813977303431961
1425398540799064015, 0.368562772123188, 0.23484334841415122, -0.0608960371103644
1425398540839350970, 0.35215037716621533, 0.23633773921558054, -0.06976132436400251
1425398540869556439, 0.3374400442697767, 0.23794563188845363, -0.07057703737524346
1425398540920126689, 0.32475128229000294, 0.2388138492808487, -0.07522771893503322
1425398540960378986, 0.3132572729548456, 0.2394353239631184, -0.0787767752293278
1425398541000887872, 0.3031572566212207, 0.23947299983683767, -0.07659524432227993
1425398541041149186, 0.2939047052840277, 0.23945326408408385, -0.07996040993407028
1425398541081430455, 0.2854915304602157, 0.23888440268090583, -0.08018672097196711
1425398541111599191, 0.27797141421710836, 0.23885940763120095, -0.08234262720219832
1425398541151929731, 0.2709316030607123, 0.23893487034477556, -0.08447970069798139
1425398541192374373, 0.2642391061847498, 0.23895290354089327, -0.08361167488140508
1425398541232905411, 0.25810259789194634, 0.23889687912209645, -0.08775782462766091
1425398541273186091, 0.252370269758199, 0.23873916071376944, -0.08713948612196298
1425398541323565534, 0.24688768298413832, 0.23840159324079546, -0.09042999360840498
1425398541353788857, 0.24464512554907292, 0.2378721920465694, -0.09348146449251304
1425398541394184004, 0.24410148486293293, 0.23744937573595593, -0.0952741996269002
1425398541445042399, 0.23960666189916757, 0.23912885598858336, -0.09965288497142277
1425398541478136741, 0.23670863273702802, 0.23899042112728552, -0.09764582601844618
1425398541518655335, 0.23400086054918534, 0.24145974677882176, -0.10203765394036846
1425398541549652279, 0.23064406554826355, 0.243118586553968, -0.10629202364680845
1425398541589982006, 0.22526421428438392, 0.24415438357149055, -0.10100625514112005
1425398541640390313, 0.22107136842836095, 0.24553183555822589, -0.10304078589761656
1425398541680702250, 0.21646600202072597, 0.24708585487858703, -0.09974960873522254
1425398541720931221, 0.20880062075979544, 0.24902745692349493, -0.09847437609530474
1425398541761199970, 0.20147508015671356, 0.24981435247531247, -0.09931713888878413
1425398541791402287, 0.1952771759840619, 0.2502955495303689, -0.09653674269584467
1425398541831772235, 0.1904801725706976, 0.24968134712745305, -0.09991120579134116
1425398541872051371, 0.1847751957597631, 0.2497772440920787, -0.09860761368072457
1425398541922447648, 0.17911594599253544, 0.24998196710500387, -0.09999553505156833
1425398541952669115, 0.17401114406561113, 0.2506289534357389, -0.10073929315292418
1425398542003061552, 0.1702528456041048, 0.2505184671783385, -0.09874370169824731
1425398542043422560, 0.166646309448239, 0.24965058699626375, -0.1014341243536061
1425398542083685619, 0.16229551363190875, 0.24927204347578424, -0.09894077344189989
1425398542113888411, 0.15750641444792524, 0.25006213722522697, -0.10040059199819451
1425398542154181600, 0.15262672135871513, 0.24946964751681056, -0.10075701216550692
1425398542194760264, 0.14776816916881008, 0.24948865864192826, -0.09876030548570758
1425398542235196279, 0.14390736409146698, 0.24920310981139782, -0.10319917596914918
1425398542246132846, 0.14358118763351835, 0.2491790041123545, -0.10223149579857271
1425398542286441586, 0.13869880782362065, 0.24929140707301634, -0.10051789486272533
1425398542317069801, 0.13524692554474782, 0.24962188312096045, -0.10211063869235604
1425398542357352170, 0.13315568557216007, 0.24927066101904694, -0.1059996786040529
1425398542400124344, 0.1336071134512813, 0.24880541446783866, -0.10416464951072024
1425398542440490648, 0.13433885823890246, 0.24757114957350335, -0.10726076730410816
1425398542470630197, 0.13341250390503867, 0.247736237513144, -0.10655601828326944
1425398542520978702, 0.13281478024455562, 0.2481227991334265, -0.10713181591719423
1425398542561250033, 0.1329848184289978, 0.24778424226438234, -0.10806180121609588
1425398542592732393, 0.13304717127756793, 0.2478708908079017, -0.10516355471421346
1425398542632971609, 0.13326952471266618, 0.24715161079895176, -0.10800697634682954
1425398542673226677, 0.1329173749490754, 0.24785378812030823, -0.10581973122339117
1425398542713450322, 0.13310249658889328, 0.24771096094645872, -0.10715194860962951
1425398542764301767, 0.1331606046214694, 0.24810146109841025, -0.10635736973656873
1425398542804816940, 0.13310627009601006, 0.2481248135026588, -0.1046258789727762
1425398542835046073, 0.13348374029374432, 0.24819521881100193, -0.10738902202797507
1425398542875872031, 0.13431637560830856, 0.24824056870168976, -0.103713520569365
1425398542917465921, 0.13663197253109105, 0.24835558477882347, -0.10253745384927537
1425398542957916125, 0.13956609975522283, 0.25078134726648216, -0.10249533654320397
1425398542967992654, 0.1396054745276626, 0.2508138876439565, -0.10230670196124758
1425398542998200425, 0.1440781761721882, 0.2530533468472618, -0.09789117649224721
1425398543038501768, 0.14898242957647823, 0.25693377786783955, -0.10144194514138749
1425398543078798978, 0.15558958080442142, 0.26219322731677286, -0.09760788419751643
1425398543109011619, 0.16383761628648408, 0.26739717813861374, -0.10086198880083264
1425398543149448565, 0.17186608279276783, 0.2713093987262831, -0.10620112575909735
1425398543189732864, 0.1801287918473815, 0.2734643041998952, -0.10814532140233157
1425398543241349530, 0.18914298751721892, 0.27721219411494546, -0.11684796971735156
1425398543281716149, 0.19992614475639492, 0.281534056729698, -0.12595819422797883
1425398543322002835, 0.21432244396603606, 0.28561398354360823, -0.14231670216253967
